
 --ALL-- 
uint	DoP	DoLP	AoP	ellipticity	intensity	opponentsignal
  0	0.9800	0.9799	1.668	0.0121	3664619.005919	2.1995	
  4	0.9797	0.9796	1.696	0.0125	3666166.315127	2.1977	
  8	0.9789	0.9788	1.710	0.0118	3665403.522761	2.1940	
 12	0.9779	0.9778	1.657	0.0106	3663764.865922	2.1900	
 16	0.9770	0.9769	1.657	0.0119	3662624.711797	2.1860	
 20	0.9743	0.9742	1.664	0.0126	3666876.562780	2.1736	
 24	0.9716	0.9715	1.679	0.0150	3666329.715459	2.1617	
 28	0.9669	0.9668	1.677	0.0133	3665521.221916	2.1409	
 32	0.9611	0.9610	1.670	0.0149	3665814.933743	2.1161	
 36	0.9559	0.9559	1.707	0.0129	3665575.544465	2.0942	
 40	0.9517	0.9516	1.704	0.0134	3666143.254066	2.0765	
 44	0.9452	0.9451	1.646	0.0144	3667945.473547	2.0503	
 48	0.9396	0.9394	1.677	0.0158	3667291.778511	2.0275	
 52	0.9316	0.9315	1.647	0.0136	3667038.158044	1.9966	
 56	0.9250	0.9249	1.650	0.0132	3664350.709040	1.9712	
 60	0.9183	0.9182	1.630	0.0151	3667780.400883	1.9461	
 64	0.9075	0.9074	1.644	0.0142	3666403.345570	1.9062	
 68	0.8977	0.8976	1.619	0.0151	3669117.677044	1.8712	
 72	0.8861	0.8859	1.587	0.0158	3669707.554320	1.8309	
 76	0.8725	0.8723	1.602	0.0161	3665402.197277	1.7850	
 80	0.8587	0.8586	1.573	0.0158	3668308.634137	1.7401	
 84	0.8471	0.8469	1.584	0.0163	3665879.153268	1.7031	
 88	0.8324	0.8322	1.564	0.0176	3669143.292150	1.6578	
 92	0.8181	0.8180	1.559	0.0174	3671104.812866	1.6152	
 96	0.8007	0.8005	1.555	0.0179	3672467.198557	1.5646	
100	0.7848	0.7846	1.569	0.0183	3671549.580993	1.5196	
104	0.7698	0.7696	1.540	0.0189	3676564.313050	1.4787	
108	0.7519	0.7517	1.508	0.0186	3671775.360280	1.4311	
112	0.7319	0.7317	1.489	0.0181	3673448.217756	1.3797	
116	0.7163	0.7161	1.443	0.0179	3672013.600868	1.3406	
120	0.6981	0.6979	1.455	0.0188	3672330.644470	1.2958	
124	0.6780	0.6777	1.357	0.0191	3678568.367297	1.2479	
128	0.6569	0.6566	1.340	0.0200	3674421.608292	1.1987	
132	0.6351	0.6348	1.278	0.0199	3676788.236716	1.1495	
136	0.6131	0.6127	1.314	0.0218	3680372.919702	1.1007	
140	0.5882	0.5879	1.272	0.0201	3678677.755310	1.0473	
144	0.5612	0.5608	1.188	0.0195	3679362.516269	0.9908	
148	0.5351	0.5346	1.042	0.0209	3680441.997775	0.9374	
152	0.5119	0.5114	1.105	0.0228	3681451.229843	0.8908	
156	0.4821	0.4816	0.963	0.0227	3683235.630257	0.8326	
160	0.4572	0.4567	0.829	0.0212	3682551.258137	0.7850	
164	0.4285	0.4279	0.833	0.0217	3685151.194338	0.7308	
168	0.3993	0.3988	0.813	0.0214	3686773.374885	0.6770	
172	0.3695	0.3688	0.543	0.0225	3686234.481412	0.6228	
176	0.3381	0.3373	0.486	0.0227	3690231.681770	0.5665	
180	0.3046	0.3039	0.198	0.0209	3689748.153567	0.5079	
184	0.2729	0.2720	0.005	0.0215	3692281.799197	0.4527	
188	0.2412	0.2403	179.678	0.0215	3690889.781929	0.3983	
192	0.2079	0.2068	179.451	0.0213	3694713.728718	0.3417	
196	0.1713	0.1700	178.814	0.0209	3694492.858446	0.2798	
200	0.1384	0.1367	177.799	0.0221	3698631.529900	0.2239	
204	0.1043	0.1020	176.359	0.0218	3697824.175975	0.1660	
208	0.0693	0.0660	173.505	0.0211	3695936.685512	0.1053	
212	0.0377	0.0318	161.287	0.0203	3699126.039574	0.0413	
216	0.0294	0.0217	124.044	0.0198	3703590.391787	-0.0132	
220	0.0541	0.0508	104.576	0.0184	3701692.688115	-0.0727	
224	0.0886	0.0866	98.929	0.0188	3703231.048587	-0.1351	
228	0.1243	0.1231	97.110	0.0179	3707090.316216	-0.1958	
232	0.1663	0.1655	96.009	0.0163	3701603.284516	-0.2664	
236	0.2095	0.2089	94.770	0.0160	3704543.639128	-0.3404	
240	0.2601	0.2597	94.306	0.0149	3712533.997723	-0.4265	
244	0.2985	0.2981	93.941	0.0148	3705070.644322	-0.4930	
248	0.3075	0.3073	93.929	0.0120	3707689.845233	-0.5088	
252	0.3144	0.3141	93.797	0.0144	3712267.614321	-0.5209	

 --BLUE-- 
uint	DoP	DoLP	AoP	ellipticity	intensity	opponentsignal
  0	0.9784	0.9783	1.652	0.0145	366710.578954	2.1920	
  4	0.9787	0.9786	1.703	0.0128	367390.411394	2.1931	
  8	0.9792	0.9792	1.696	0.0112	366674.948012	2.1958	
 12	0.9775	0.9774	1.648	0.0134	366672.882897	2.1884	
 16	0.9760	0.9759	1.602	0.0140	366301.781155	2.1820	
 20	0.9732	0.9730	1.657	0.0148	367057.840969	2.1686	
 24	0.9706	0.9705	1.660	0.0142	366828.341972	2.1574	
 28	0.9648	0.9647	1.698	0.0149	367491.813008	2.1318	
 32	0.9598	0.9596	1.630	0.0175	366357.164017	2.1106	
 36	0.9534	0.9532	1.749	0.0162	366930.304614	2.0828	
 40	0.9483	0.9482	1.722	0.0136	367362.575694	2.0625	
 44	0.9414	0.9413	1.707	0.0141	367220.693522	2.0347	
 48	0.9335	0.9334	1.667	0.0164	367054.858375	2.0037	
 52	0.9267	0.9266	1.638	0.0148	367199.801470	1.9778	
 56	0.9178	0.9176	1.570	0.0164	366623.877661	1.9443	
 60	0.9102	0.9100	1.654	0.0168	367010.323037	1.9158	
 64	0.8986	0.8985	1.629	0.0134	367352.131153	1.8746	
 68	0.8875	0.8873	1.590	0.0176	366890.305350	1.8357	
 72	0.8761	0.8759	1.563	0.0174	367005.274449	1.7972	
 76	0.8611	0.8609	1.578	0.0188	367092.701743	1.7477	
 80	0.8481	0.8479	1.607	0.0175	366955.888460	1.7060	
 84	0.8332	0.8330	1.601	0.0179	366935.196062	1.6601	
 88	0.8166	0.8164	1.581	0.0204	367549.921737	1.6104	
 92	0.8017	0.8014	1.551	0.0199	367163.662458	1.5671	
 96	0.7826	0.7824	1.519	0.0169	367579.498062	1.5139	
100	0.7672	0.7669	1.634	0.0201	367303.734703	1.4711	
104	0.7477	0.7474	1.543	0.0229	368237.095285	1.4198	
108	0.7294	0.7292	1.519	0.0200	367457.688471	1.3731	
112	0.7069	0.7066	1.516	0.0189	367915.446973	1.3170	
116	0.6904	0.6902	1.397	0.0200	367532.489710	1.2774	
120	0.6716	0.6713	1.393	0.0192	367591.358335	1.2328	
124	0.6485	0.6482	1.340	0.0188	367878.456225	1.1797	
128	0.6262	0.6259	1.324	0.0205	367670.802549	1.1296	
132	0.6040	0.6036	1.292	0.0217	367605.924858	1.0810	
136	0.5793	0.5789	1.323	0.0232	368103.527414	1.0282	
140	0.5536	0.5530	1.269	0.0241	367751.846012	0.9745	
144	0.5237	0.5234	1.212	0.0193	367692.688031	0.9145	
148	0.4982	0.4976	0.856	0.0239	367760.844486	0.8639	
152	0.4688	0.4682	1.004	0.0247	368555.766176	0.8067	
156	0.4362	0.4356	0.975	0.0224	368514.258032	0.7450	
160	0.4119	0.4111	0.683	0.0248	368067.064418	0.6998	
164	0.3799	0.3792	0.875	0.0228	368515.179437	0.6414	
168	0.3501	0.3494	0.676	0.0222	368144.966947	0.5880	
172	0.3168	0.3159	0.507	0.0239	368354.861295	0.5289	
176	0.2863	0.2853	0.374	0.0239	368283.810113	0.4755	
180	0.2510	0.2501	179.813	0.0209	368742.664721	0.4151	
184	0.2195	0.2184	179.645	0.0215	368041.840522	0.3612	
188	0.1847	0.1834	179.115	0.0221	368917.466846	0.3022	
192	0.1505	0.1488	178.366	0.0228	369331.750307	0.2443	
196	0.1139	0.1121	177.575	0.0203	368443.930616	0.1832	
200	0.0828	0.0792	175.049	0.0242	368966.594206	0.1278	
204	0.0498	0.0449	170.703	0.0217	369115.692088	0.0696	
208	0.0267	0.0171	145.721	0.0205	368957.083168	0.0102	
212	0.0437	0.0394	108.123	0.0189	370018.180821	-0.0519	
216	0.0720	0.0693	98.625	0.0194	370064.133255	-0.1084	
220	0.1071	0.1055	97.915	0.0186	369841.223070	-0.1665	
224	0.1449	0.1437	95.776	0.0185	369880.092542	-0.2315	
228	0.1783	0.1774	95.173	0.0181	370241.167723	-0.2875	
232	0.2181	0.2175	94.432	0.0160	370161.445665	-0.3554	
236	0.2570	0.2565	93.973	0.0162	370319.563954	-0.4219	
240	0.3044	0.3040	93.630	0.0155	371308.407786	-0.5038	
244	0.3492	0.3490	93.186	0.0114	370327.716462	-0.5836	
248	0.3733	0.3732	93.270	0.0094	370856.176656	-0.6264	
252	0.3828	0.3827	93.117	0.0112	371044.271193	-0.6438	

 --GREEN-- 
uint	DoP	DoLP	AoP	ellipticity	intensity	opponentsignal
  0	0.9810	0.9809	1.704	0.0106	536152.294280	2.2037	
  4	0.9810	0.9809	1.728	0.0134	536271.442497	2.2033	
  8	0.9815	0.9814	1.735	0.0106	535568.945767	2.2056	
 12	0.9804	0.9803	1.724	0.0124	535913.624089	2.2008	
 16	0.9789	0.9789	1.698	0.0104	536177.125431	2.1944	
 20	0.9770	0.9769	1.666	0.0115	536370.223468	2.1858	
 24	0.9739	0.9738	1.709	0.0144	536449.339468	2.1716	
 28	0.9689	0.9688	1.695	0.0135	536019.612611	2.1496	
 32	0.9632	0.9631	1.724	0.0143	535509.404592	2.1246	
 36	0.9595	0.9594	1.659	0.0111	535755.639892	2.1095	
 40	0.9547	0.9546	1.697	0.0117	536029.246665	2.0890	
 44	0.9499	0.9498	1.669	0.0141	535938.920951	2.0692	
 48	0.9433	0.9432	1.728	0.0139	536411.072123	2.0423	
 52	0.9361	0.9360	1.566	0.0136	536285.719318	2.0149	
 56	0.9291	0.9290	1.595	0.0127	535695.006494	1.9872	
 60	0.9227	0.9226	1.643	0.0155	535701.478757	1.9623	
 64	0.9126	0.9125	1.634	0.0126	535658.082620	1.9249	
 68	0.9038	0.9037	1.633	0.0149	536362.649735	1.8928	
 72	0.8920	0.8919	1.608	0.0145	535758.010349	1.8515	
 76	0.8782	0.8781	1.607	0.0135	535731.049495	1.8041	
 80	0.8670	0.8668	1.566	0.0134	535467.653470	1.7670	
 84	0.8542	0.8541	1.543	0.0123	535426.836859	1.7260	
 88	0.8413	0.8411	1.540	0.0142	536053.543984	1.6853	
 92	0.8273	0.8272	1.510	0.0133	536034.709429	1.6428	
 96	0.8121	0.8119	1.495	0.0157	536487.035132	1.5976	
100	0.7958	0.7957	1.491	0.0130	536111.039516	1.5510	
104	0.7809	0.7807	1.458	0.0166	536711.926505	1.5093	
108	0.7658	0.7657	1.464	0.0151	536324.185764	1.4685	
112	0.7471	0.7469	1.403	0.0172	536321.377464	1.4190	
116	0.7328	0.7327	1.409	0.0143	536138.258626	1.3823	
120	0.7169	0.7167	1.425	0.0163	536229.293356	1.3420	
124	0.6976	0.6974	1.363	0.0183	536710.130548	1.2948	
128	0.6763	0.6761	1.253	0.0163	536397.435420	1.2444	
132	0.6541	0.6539	1.180	0.0152	536320.774808	1.1930	
136	0.6343	0.6340	1.224	0.0185	537117.372585	1.1480	
140	0.6096	0.6093	1.126	0.0173	536770.962037	1.0937	
144	0.5844	0.5841	1.012	0.0183	536904.473899	1.0398	
148	0.5594	0.5591	1.023	0.0175	536697.648596	0.9874	
152	0.5351	0.5347	1.006	0.0193	537303.944313	0.9376	
156	0.5069	0.5065	0.827	0.0204	537409.121157	0.8814	
160	0.4840	0.4836	0.808	0.0187	537422.779514	0.8366	
164	0.4568	0.4565	0.720	0.0188	537800.773349	0.7846	
168	0.4289	0.4285	0.727	0.0188	538048.632897	0.7319	
172	0.3995	0.3990	0.442	0.0189	537504.809477	0.6777	
176	0.3685	0.3681	0.462	0.0185	538727.735752	0.6215	
180	0.3371	0.3365	0.223	0.0195	538091.006406	0.5652	
184	0.3041	0.3035	179.823	0.0194	538872.833016	0.5072	
188	0.2733	0.2726	179.796	0.0192	537835.179602	0.4537	
192	0.2419	0.2412	179.349	0.0186	538468.968159	0.3998	
196	0.2049	0.2041	178.659	0.0181	538702.902888	0.3368	
200	0.1711	0.1700	178.245	0.0191	539264.717521	0.2795	
204	0.1355	0.1343	176.844	0.0176	538501.152689	0.2194	
208	0.0997	0.0982	175.482	0.0172	539368.693612	0.1590	
212	0.0625	0.0601	170.718	0.0173	538575.370878	0.0933	
216	0.0349	0.0308	159.526	0.0165	540080.861182	0.0381	
220	0.0352	0.0309	122.535	0.0168	540262.624512	-0.0213	
224	0.0614	0.0591	104.384	0.0169	540225.113403	-0.0848	
228	0.0961	0.0944	99.770	0.0180	539643.500125	-0.1459	
232	0.1393	0.1384	97.383	0.0163	540062.256385	-0.2198	
236	0.1880	0.1875	95.681	0.0138	539606.162856	-0.3031	
240	0.2398	0.2395	95.032	0.0131	540990.295275	-0.3907	
244	0.2733	0.2730	94.631	0.0130	539280.473344	-0.4483	
248	0.2698	0.2696	94.622	0.0105	540004.576808	-0.4425	
252	0.2743	0.2739	94.425	0.0156	540982.664318	-0.4503	

 --RED-- 
uint	DoP	DoLP	AoP	ellipticity	intensity	opponentsignal
  0	0.9837	0.9836	1.713	0.0125	90825.088030	2.2159	
  4	0.9817	0.9817	1.821	0.0066	90722.131110	2.2061	
  8	0.9798	0.9796	1.533	0.0174	90816.867281	2.1991	
 12	0.9790	0.9789	1.697	0.0044	90545.479304	2.1947	
 16	0.9797	0.9796	1.614	0.0121	90851.950268	2.1984	
 20	0.9767	0.9767	1.586	0.0098	90912.031061	2.1855	
 24	0.9704	0.9703	1.728	0.0180	91091.827167	2.1558	
 28	0.9682	0.9681	1.549	0.0091	90830.611826	2.1479	
 32	0.9641	0.9640	1.597	0.0155	90941.238206	2.1297	
 36	0.9631	0.9630	1.732	0.0129	91065.648583	2.1243	
 40	0.9575	0.9574	1.676	0.0138	90704.953895	2.1009	
 44	0.9508	0.9506	1.537	0.0176	90848.703005	2.0739	
 48	0.9428	0.9427	1.743	0.0124	90797.194841	2.0401	
 52	0.9397	0.9396	1.777	0.0114	90625.462522	2.0275	
 56	0.9368	0.9367	1.689	0.0147	90637.714824	2.0165	
 60	0.9275	0.9274	1.617	0.0072	90895.406580	1.9812	
 64	0.9185	0.9185	1.665	0.0117	90829.929199	1.9469	
 68	0.9088	0.9087	1.532	0.0095	90893.337976	1.9117	
 72	0.9024	0.9024	1.569	0.0120	90611.691266	1.8886	
 76	0.8869	0.8867	1.970	0.0208	90734.771173	1.8309	
 80	0.8796	0.8794	1.554	0.0177	90930.002805	1.8089	
 84	0.8675	0.8674	1.480	0.0133	90829.769703	1.7692	
 88	0.8541	0.8539	1.521	0.0179	90691.368673	1.7254	
 92	0.8405	0.8402	1.696	0.0204	90984.233787	1.6817	
 96	0.8253	0.8252	1.756	0.0147	90914.391672	1.6356	
100	0.8178	0.8175	1.708	0.0206	90942.662299	1.6131	
104	0.8018	0.8015	1.801	0.0220	90925.080492	1.5662	
108	0.7893	0.7892	1.505	0.0128	90894.047812	1.5328	
112	0.7682	0.7681	1.590	0.0140	90755.952052	1.4744	
116	0.7582	0.7580	1.685	0.0181	90777.487426	1.4471	
120	0.7394	0.7391	1.740	0.0228	90571.036176	1.3975	
124	0.7229	0.7226	1.657	0.0226	90972.341334	1.3559	
128	0.6952	0.6950	1.668	0.0193	90966.206400	1.2880	
132	0.6866	0.6864	1.623	0.0186	91006.895496	1.2677	
136	0.6654	0.6650	1.600	0.0247	91013.311750	1.2174	
140	0.6397	0.6393	1.440	0.0223	90753.118710	1.1594	
144	0.6185	0.6183	1.423	0.0156	91206.872348	1.1126	
148	0.5965	0.5963	1.456	0.0160	91018.541949	1.0649	
152	0.5755	0.5752	1.491	0.0191	91062.418722	1.0200	
156	0.5455	0.5450	1.236	0.0221	91135.053597	0.9582	
160	0.5274	0.5269	1.014	0.0232	91045.189906	0.9217	
164	0.5011	0.5002	1.501	0.0299	90901.834723	0.8682	
168	0.4724	0.4719	1.222	0.0213	91142.310020	0.8136	
172	0.4468	0.4463	1.116	0.0210	90827.130086	0.7650	
176	0.4178	0.4170	0.940	0.0262	91035.969309	0.7104	
180	0.3897	0.3886	0.786	0.0282	91112.244133	0.6585	
184	0.3523	0.3517	1.090	0.0197	91173.273342	0.5918	
188	0.3284	0.3275	0.892	0.0240	90946.172443	0.5491	
192	0.2978	0.2967	1.067	0.0254	91222.745528	0.4950	
196	0.2696	0.2683	1.275	0.0267	91432.084584	0.4459	
200	0.2340	0.2328	0.841	0.0233	91175.333744	0.3856	
204	0.1992	0.1979	179.917	0.0231	91059.737213	0.3267	
208	0.1603	0.1581	0.046	0.0268	91151.973944	0.2602	
212	0.1265	0.1242	178.564	0.0239	90808.935476	0.2038	
216	0.0912	0.0884	178.648	0.0222	91356.131484	0.1448	
220	0.0559	0.0510	176.223	0.0229	91291.272814	0.0828	
224	0.0276	0.0169	158.979	0.0218	91202.104317	0.0206	
228	0.0375	0.0249	108.412	0.0281	91156.443829	-0.0326	
232	0.0748	0.0723	95.851	0.0193	91082.803571	-0.1160	
236	0.1203	0.1192	94.291	0.0162	91334.338364	-0.1934	
240	0.1767	0.1751	93.615	0.0234	91546.606233	-0.2862	
244	0.2053	0.2045	94.534	0.0173	91111.179649	-0.3336	
248	0.2053	0.2045	93.923	0.0186	91286.063319	-0.3345	
252	0.2093	0.2087	93.773	0.0157	91186.689943	-0.3419	
